Date,Open,High,Low,Close,Volume,Adj Close
2015-10-09,69.690002,70.699997,69.690002,70.260002,252100,70.260002
2015-10-08,68.760002,69.769997,68.50,69.629997,185000,69.629997
2015-10-07,68.010002,68.730003,67.720001,68.68,222100,68.68
2015-10-06,68.529999,68.669998,67.610001,67.68,306300,67.68
2015-10-05,68.43,69.029999,68.050003,68.410004,271600,68.410004
2015-10-02,66.639999,68.00,66.160004,67.980003,216000,67.980003
2015-10-01,65.949997,67.43,65.790001,67.239998,569600,67.239998
2015-09-30,65.510002,66.279999,65.309998,65.959999,311400,65.959999
2015-09-29,64.139999,65.00,63.619999,64.940002,422400,64.940002
2015-09-28,65.139999,65.25,64.099998,64.150002,218700,64.150002
2015-09-25,65.690002,65.690002,64.839996,65.529999,388900,65.529999
2015-09-24,66.269997,66.269997,65.160004,65.599998,270400,65.599998
2015-09-23,66.919998,67.059998,65.839996,66.68,359100,66.68
2015-09-22,66.879997,67.419998,66.660004,66.739998,171700,66.739998
2015-09-21,67.480003,68.339996,67.139999,67.629997,193600,67.629997
2015-09-18,67.790001,68.290001,67.00,67.150002,444200,67.150002
2015-09-17,69.150002,69.379997,68.360001,68.419998,178500,68.419998
2015-09-16,68.309998,69.160004,67.879997,69.040001,213500,69.040001
2015-09-15,67.540001,68.440002,67.370003,68.410004,523700,68.410004
2015-09-14,67.279999,67.279999,66.709999,66.720001,175300,66.720001
2015-09-11,66.68,67.419998,66.080002,67.400002,266700,67.400002
2015-09-10,67.209999,67.970001,66.580002,66.910004,366100,66.910004
2015-09-09,68.019997,68.620003,67.110001,67.779999,432300,67.779999
2015-09-08,67.75,68.360001,67.279999,68.019997,370200,68.019997
2015-09-04,66.699997,67.459999,66.559998,67.269997,244300,67.269997
2015-09-03,66.699997,67.459999,66.639999,67.379997,159400,67.379997
2015-09-02,66.550003,66.949997,65.50,66.480003,248300,66.480003
2015-09-01,66.07,66.919998,65.779999,65.800003,357000,65.800003
2015-08-31,67.389999,67.790001,67.080002,67.360001,242700,67.360001
2015-08-28,67.220001,67.760002,66.940002,67.709999,186200,67.709999
2015-08-27,67.209999,67.760002,66.43,67.660004,280700,67.660004
2015-08-26,66.699997,66.769997,65.410004,66.709999,301200,66.709999
2015-08-25,67.879997,68.089996,65.470001,65.540001,317800,65.540001
2015-08-24,64.800003,67.620003,64.660004,66.150002,508300,66.150002
2015-08-21,67.120003,68.120003,67.040001,67.610001,399600,67.610001
2015-08-20,68.639999,69.089996,68.00,68.07,236500,68.07
2015-08-19,69.519997,69.720001,68.550003,69.110001,206200,69.110001
2015-08-18,69.800003,70.279999,69.459999,69.830002,148000,69.830002
2015-08-17,69.620003,70.339996,69.150002,70.089996,161600,70.089996
2015-08-14,69.00,69.93,68.849998,69.870003,175700,69.870003
2015-08-13,68.510002,69.580002,68.300003,69.029999,241900,69.029999
2015-08-12,68.629997,69.620003,67.93,68.779999,212200,68.779999
2015-08-11,69.400002,69.949997,68.599998,69.18,385900,69.18
2015-08-10,69.010002,70.099998,68.839996,69.919998,155300,69.919998
2015-08-07,68.279999,68.900002,67.93,68.790001,240600,68.790001
2015-08-06,68.779999,69.110001,68.190002,68.370003,225400,68.370003
2015-08-05,68.150002,69.339996,68.099998,68.809998,239900,68.809998
2015-08-04,67.400002,68.190002,67.230003,67.93,264700,67.93
2015-08-03,67.779999,68.059998,66.540001,67.279999,364200,67.279999
2015-07-31,67.790001,68.709999,67.50,67.790001,550700,67.790001
2015-07-30,66.32,67.93,66.050003,67.50,759700,67.50
2015-07-29,64.00,67.389999,63.509998,66.349998,758600,66.349998
2015-07-28,61.619999,62.349998,61.27,62.299999,243700,62.299999
2015-07-27,61.220001,61.57,60.73,61.380001,254900,61.380001
2015-07-24,62.34,62.610001,61.50,61.75,304100,61.469999
2015-07-23,63.16,63.259998,62.41,62.459999,156600,62.176779
2015-07-22,62.970001,63.490002,62.950001,63.00,316000,62.714331
2015-07-21,63.759998,64.089996,62.950001,63.080002,213600,62.79397
2015-07-20,63.82,64.080002,63.610001,63.959999,147700,63.669977
2015-07-17,64.150002,64.330002,63.759998,63.93,216300,63.640115
2015-07-16,64.220001,64.550003,64.120003,64.300003,140800,64.00844
2015-07-15,63.880001,64.279999,63.630001,63.939999,269400,63.650068
2015-07-14,64.019997,64.290001,63.790001,63.939999,304000,63.650068
2015-07-13,63.779999,64.349998,63.779999,64.260002,262000,63.96862
2015-07-10,63.959999,64.449997,63.509998,63.68,173500,63.391248
2015-07-09,63.889999,64.040001,63.25,63.41,360600,63.122472
2015-07-08,63.889999,64.389999,63.25,63.439999,350800,63.152335
2015-07-07,63.740002,64.360001,63.439999,64.300003,262700,64.00844
2015-07-06,63.450001,63.990002,63.169998,63.84,229700,63.550523
2015-07-02,64.120003,64.260002,63.560001,63.790001,198500,63.50075
2015-07-01,64.139999,64.379997,63.740002,63.849998,434100,63.560476
2015-06-30,64.07,64.300003,63.619999,63.77,478200,63.48084
2015-06-29,64.150002,64.559998,63.68,63.740002,262500,63.450978
2015-06-26,64.400002,64.629997,64.059998,64.480003,301500,64.187624
2015-06-25,64.68,65.089996,64.029999,64.279999,325000,63.988526
2015-06-24,65.120003,65.309998,64.370003,64.449997,189100,64.157753
2015-06-23,65.57,65.629997,64.809998,65.18,381000,64.884447
2015-06-22,65.639999,65.639999,65.139999,65.50,236100,65.202995
2015-06-19,65.300003,65.830002,65.040001,65.290001,462200,64.993948
2015-06-18,64.949997,65.339996,64.489998,65.269997,210400,64.974035
2015-06-17,64.879997,65.00,64.129997,64.809998,306600,64.516122
2015-06-16,64.309998,65.779999,64.00,64.900002,579000,64.605717
2015-06-15,64.059998,64.279999,63.619999,64.269997,329600,63.978569
2015-06-12,64.50,64.75,64.139999,64.580002,247700,64.287169
2015-06-11,64.230003,64.82,64.209999,64.779999,224700,64.486259
2015-06-10,64.300003,64.559998,64.050003,64.239998,264900,63.948707
2015-06-09,63.75,64.330002,63.580002,64.150002,367100,63.859118
2015-06-08,64.239998,64.529999,63.560001,63.75,333400,63.460931
2015-06-05,63.77,64.32,63.450001,64.279999,345400,63.988526
2015-06-04,63.75,64.25,63.529999,63.919998,189400,63.630158
2015-06-03,64.25,64.559998,63.950001,64.139999,532800,63.849161
2015-06-02,63.830002,64.629997,63.470001,63.950001,302500,63.660024
2015-06-01,64.019997,64.269997,63.310001,63.900002,406200,63.610252
2015-05-29,64.639999,64.849998,63.650002,63.77,227400,63.48084
2015-05-28,64.400002,64.699997,64.080002,64.489998,274100,64.197573
2015-05-27,64.019997,64.550003,63.84,64.480003,258800,64.187624
2015-05-26,64.480003,64.639999,63.68,63.970001,286600,63.679934
2015-05-22,64.75,65.010002,64.330002,64.50,313600,64.20753
2015-05-21,65.239998,65.260002,64.550003,64.919998,425200,64.625623
2015-05-20,66.089996,66.150002,65.290001,65.459999,170600,65.163176
2015-05-19,65.730003,66.309998,65.629997,66.089996,314400,65.790316
2015-05-18,65.120003,65.839996,64.959999,65.660004,220100,65.362273
2015-05-15,65.209999,65.389999,64.879997,65.199997,213600,64.904353
2015-05-14,64.629997,65.419998,64.629997,65.209999,712700,64.914309
2015-05-13,63.970001,64.50,63.970001,64.330002,601300,64.038302
2015-05-12,62.880001,63.709999,62.380001,63.509998,435800,63.222017
2015-05-11,62.970001,63.209999,62.900002,63.060001,501400,62.774061
2015-05-08,63.700001,63.700001,62.950001,63.16,522600,62.873606
2015-05-07,63.02,63.130001,62.720001,63.00,699400,62.714331
2015-05-06,63.099998,63.34,62.610001,63.099998,640900,62.813876
2015-05-05,63.740002,64.080002,62.869999,63.00,659200,62.714331
2015-05-04,64.339996,64.980003,63.900002,63.959999,922000,63.669977
2015-05-01,64.25,64.93,63.009998,64.050003,1366000,63.759573
2015-04-30,62.150002,62.790001,62.00,62.07,407400,61.788548
2015-04-29,62.639999,62.740002,62.119999,62.549999,256600,62.266371
2015-04-28,62.720001,63.049999,62.450001,62.779999,254100,62.495328
2015-04-27,63.380001,63.59,62.549999,62.790001,491400,62.505284
2015-04-24,63.150002,63.439999,62.639999,63.290001,282600,62.724288
2015-04-23,62.700001,63.110001,62.700001,62.939999,289900,62.377414
2015-04-22,62.68,63.470001,62.439999,62.880001,169200,62.317952
2015-04-21,63.119999,63.279999,62.50,62.720001,235900,62.159383
2015-04-20,63.07,63.259998,62.73,62.810001,300100,62.248578
2015-04-17,62.720001,62.990002,61.98,62.84,310900,62.278309
2015-04-16,63.32,63.52,62.830002,63.009998,380300,62.446788
2015-04-15,63.580002,63.599998,62.91,63.00,247400,62.436879
2015-04-14,63.470001,63.73,63.139999,63.299999,320900,62.734197
2015-04-13,63.049999,63.669998,63.009998,63.43,343300,62.863036
